Time (s),Plasma Concentration (ug/ml)
0,0.453174069
381.9628647,0.396647982
668.4350133,0.35766385
1527.851459,0.310868935
3151.193634,0.259181296
6970.822281,0.204510981
10503.97878,0.166413381
14323.60743,0.133180074
17856.76393,0.105800977
21485.41114,0.086214572
25114.05836,0.070525805
28647.21485,0.05776285
32275.86207,0.044022901
35904.50928,0.030282953
